ecg
0.0054849074222147465
-0.018369680270552635
0.01420816220343113
0.01798015832901001
-0.033718764781951904
-0.021689599379897118
0.004400391597300768
-0.0032436312176287174
0.0024955980479717255
-0.012207702733576298
0.019325081259012222
0.017844732850790024
0.005381298251450062
0.024831034243106842
0.013303462415933609
-0.010231741704046726
0.0122198686003685
-0.011331122368574142
0.02208683453500271
0.005721562076359987
0.0036377201322466135
-0.0049469745717942715
0.029659507796168327
0.0052157300524413586
0.0006303599802777171
0.0023443892132490873
0.018606476485729218
0.015944696962833405
0.017137492075562477
0.017804695293307304
0.048941485583782196
0.0034189741127192974
0.0018579649040475488
-0.003223640378564596
0.022860920056700706
0.03244829177856445
0.010435543023049831
-0.0022677211090922356
-0.0016053073341026902
0.025341955944895744
0.02742638811469078
0.024267852306365967
0.002989450003951788
0.019668560475111008
0.018165573477745056
0.020644860342144966
0.033120475709438324
0.02228662557899952
0.03143063560128212
0.021518820896744728
0.026767831295728683
0.034384533762931824
-0.0015243836678564548
0.020889032632112503
0.020401321351528168
0.019909407943487167
0.029342442750930786
0.0644596740603447
0.02561226859688759
0.06267831474542618
0.019422480836510658
0.048561789095401764
0.06279300898313522
0.07606291770935059
0.08429703116416931
0.09204544126987457
0.07798094302415848
0.08257462084293365
0.11303754895925522
0.10080750286579132
0.08779972791671753
0.0966172069311142
0.10635095089673996
0.13725395500659943
0.1356860101222992
0.1496845930814743
0.13293027877807617
0.14600153267383575
0.156046062707901
0.13993392884731293
0.15350961685180664
0.13223843276500702
0.13559578359127045
0.1324014961719513
0.11412406712770462
0.1401107758283615
0.1180092990398407
0.12132002413272858
0.12401976436376572
0.11742238700389862
0.11523830145597458
0.09532877802848816
0.08338360488414764
0.0836184024810791
0.048956453800201416
0.04784344509243965
0.04498353227972984
0.04611658304929733
0.06693599373102188
0.039524707943201065
0.04551149159669876
0.07260387390851974
0.040093500167131424
0.05743807181715965
0.025356760248541832
0.036777153611183167
0.021971723064780235
0.0318199060857296
0.05212151259183884
0.0051717329770326614
0.04351746663451195
0.03955312818288803
0.02427421510219574
0.008733658120036125
0.035935837775468826
0.02504713088274002
0.038759276270866394
0.03499913960695267
0.06350495666265488
0.030456580221652985
0.016452858224511147
0.03822748363018036
0.039095137268304825
0.059742145240306854
0.05045485123991966
0.04199527949094772
0.06206107884645462
0.014474133029580116
0.024506021291017532
0.01949172653257847
0.029300525784492493
0.011681945063173771
0.04803822934627533
0.032746680080890656
0.010411354713141918
0.018742799758911133
0.0428023561835289
0.05238041654229164
0.07337049394845963
0.09001585096120834
0.045167043805122375
0.020045654848217964
-0.0003554806171450764
0.04302755743265152
0.02379995584487915
0.031236786395311356
0.02805979549884796
0.03703080862760544
0.059417661279439926
0.04397322237491608
0.03955746442079544
0.025517676025629044
0.016408970579504967
0.041052088141441345
0.053209856152534485
0.09180926531553268
0.06995023041963577
0.09515424817800522
0.08106045424938202
0.08454772084951401
0.10812552273273468
0.13640032708644867
0.21656908094882965
0.1975555419921875
0.2671174108982086
0.2812102735042572
0.3653668761253357
0.41205090284347534
0.4636184573173523
0.5309147834777832
0.5877639055252075
0.6766840219497681
0.7290420532226562
0.7813115119934082
0.8420705795288086
0.9234424233436584
0.995695173740387
1.0070909261703491
1.02766752243042
1.0482418537139893
1.0671117305755615
1.0352755784988403
0.9993647933006287
0.9907785058021545
0.9327138066291809
0.898473858833313
0.813560426235199
0.7232571244239807
0.6533193588256836
0.6398402452468872
0.574592649936676
0.4765388071537018
0.41304636001586914
0.3912983536720276
0.29559022188186646
0.25572851300239563
0.24558499455451965
0.19478066265583038
0.17506393790245056
0.15045025944709778
0.14216403663158417
0.14803844690322876
0.11433001607656479
0.11714738607406616
0.063893623650074
0.0971163734793663
0.08159764856100082
0.07489220052957535
0.08209278434515
0.09375832229852676
0.11877027899026871
0.08142990618944168
0.10928802192211151
0.10378959029912949
0.110655277967453
0.13889136910438538
0.13502512872219086
0.15409550070762634
0.13209271430969238
0.12735223770141602
0.14099688827991486
0.15466922521591187
0.15888093411922455
0.1416919231414795
0.1684473603963852
0.17662250995635986
0.22360125184059143
0.21790635585784912
0.17465223371982574
0.19076240062713623
0.17554081976413727
0.19720523059368134
0.21946601569652557
0.2414134442806244
0.21246656775474548
0.219639390707016
0.1985112726688385
0.2398897409439087
0.22923846542835236
0.2442471981048584
0.24326185882091522
0.2624521255493164
0.2374309003353119
0.2473846822977066
0.31662285327911377
0.25939470529556274
0.2668492794036865
0.32341498136520386
0.3461225926876068
0.2759321928024292
0.2932765483856201
0.30862176418304443
0.33583271503448486
0.288859486579895
0.3037709891796112
0.3233906924724579
0.3180810809135437
0.30398106575012207
0.30847683548927307
0.285907119512558
0.3057735562324524
0.3043084740638733
0.3119654357433319
0.29611778259277344
0.31257855892181396
0.3199537694454193
0.30182158946990967
0.30232876539230347
0.2936120331287384
0.28901129961013794
0.2720853388309479
0.28655651211738586
0.2746317684650421
0.30933552980422974
0.2950226068496704
0.26847580075263977
0.24242545664310455
0.23058593273162842
0.2663353681564331
0.24376416206359863
0.24168957769870758
0.19554713368415833
0.23745454847812653
0.22267718613147736
0.1881903111934662
0.19333164393901825
0.20018436014652252
0.189993754029274
0.17741142213344574
0.17445318400859833
0.1654645949602127
0.16648295521736145
0.18402573466300964
0.10521863400936127
0.1411236971616745
0.14263217151165009
0.1389598697423935
0.12123242765665054
0.09072661399841309
0.12280511111021042
0.1426861584186554
0.07882144302129745
0.11696590483188629
0.0906422808766365
0.09074624627828598
0.06835006177425385
0.07689343392848969
0.1020858883857727
0.08510447293519974
0.10188952833414078
0.08815117925405502
0.07126816362142563
0.09131717681884766
0.06454236060380936
0.06840784847736359
0.04517550393939018
0.04886385425925255
0.03240327537059784
0.06019477918744087
0.018728308379650116
0.051701221615076065
0.031989336013793945
0.05442189425230026
0.04488493502140045
0.06227738410234451
0.0408979095518589
-0.0022176264319568872
0.02330119162797928
0.0019248463213443756
0.012289275415241718
0.047495901584625244
0.03051854856312275
0.005280674435198307
-0.0015018864069133997
0.016279758885502815
-0.007206618320196867
0.0016660831170156598
0.018467672169208527
0.03279831260442734
0.022154612466692924
-0.030812205746769905
0.015180637128651142
0.01030380092561245
0.015793872997164726
0.03680127486586571
-0.030036460608243942
-0.004121222998946905
0.016594206914305687
-0.02305101603269577
0.03146332502365112
0.011022336781024933
0.019141701981425285
-0.006848338060081005
0.017614739015698433
0.02174951508641243
0.006269455421715975
0.0058670747093856335
0.0060929059982299805
-0.014726797118782997
-0.002248354023322463
0.004396131262183189
0.012557243928313255
-0.009839488193392754
-0.015306122601032257
-0.034453220665454865
0.019238846376538277
0.0023990957997739315
0.006151899695396423
-0.011306689120829105
0.025224052369594574
0.020473526790738106
0.0016516484320163727
-0.005812796764075756
-0.0018797520315274596
-0.009486965835094452
0.005713677499443293
-0.005508664529770613
0.016468530520796776
-0.0001957047643372789
0.0002490014012437314
0.03463579714298248
-0.005753194447606802
-0.020568722859025
0.01458913367241621
-0.029061373323202133
0.013441608287394047
0.026695873588323593
0.010628773830831051
0.009875256568193436
-0.026861051097512245
0.02038729377090931
0.017867710441350937
-0.010017625987529755
0.045861341059207916
-0.010259000584483147
-0.01810043677687645
-0.02011244185268879
0.013322572223842144
0.019317036494612694
0.021568816155195236
0.007975333370268345
-0.0001370755344396457
0.03013838641345501
-0.0006668796413578093
-0.005711895413696766
0.04193214699625969
0.02063104696571827
0.02674512378871441
0.030475324019789696
0.010010049678385258
0.011972155421972275
0.03455181419849396
0.013595699332654476
0.032691486179828644
0.027257757261395454
0.009912322275340557
0.05169003829360008
0.014342213980853558
0.045390572398900986
0.046455029398202896
0.0725131407380104
0.03443646803498268
0.05008591338992119
0.06370539218187332
0.07475019991397858
0.09339742362499237
0.08985777199268341
0.0913444459438324
0.11610405892133713
0.1419801265001297
0.08636263012886047
0.11691293865442276
0.1365746110677719
0.1298484206199646
0.15894582867622375
0.13124075531959534
0.12236875295639038
0.15881700813770294
0.09487323462963104
0.13693851232528687
0.1878771036863327
0.1446254849433899
0.14857050776481628
0.12214385718107224
0.13523180782794952
0.12878568470478058
0.15990856289863586
0.10291361063718796
0.06565451622009277
0.11670445650815964
0.13116152584552765
0.08470535278320312
0.05817916989326477
0.0657421424984932
0.08713214844465256
0.06376998126506805
0.06955371797084808
0.021630020812153816
0.05037110298871994
0.07000871002674103
0.047549739480018616
0.0307783056050539
0.06543167680501938
0.06191554293036461
0.033766891807317734
0.027097832411527634
0.062044285237789154
0.027979180216789246
0.033995360136032104
0.06860040128231049
0.03895401209592819
0.026214024052023888
-0.0007942086667753756
0.035153746604919434
0.03275744244456291
0.022931519895792007
0.05069196969270706
0.010667960159480572
0.005296412855386734
0.019453512504696846
0.032474834471940994
0.005674183368682861
0.011143875308334827
0.01669069193303585
0.03034290112555027
0.01747892238199711
0.04686419293284416
-0.01160986814647913
0.034182194620370865
0.0147309685125947
0.032096121460199356
0.05736701935529709
0.018316803500056267
0.02058265544474125
0.02922106347978115
-0.01291420217603445
0.019337553530931473
0.018215036019682884
-0.0031191743910312653
0.00658923014998436
-0.007599644362926483
-0.02857045643031597
-0.043501116335392
-0.007155032828450203
0.002429963555186987
-0.04824023321270943
-0.0313933864235878
-0.0630573183298111
-0.051860466599464417
-0.05323360487818718
-0.06417787820100784
-0.042497389018535614
-0.018602222204208374
-0.01915227249264717
-0.028493687510490417
0.019590573385357857
0.01451158244162798
0.06324256211519241
0.03136782348155975
0.13724572956562042
0.11183030903339386
0.12981481850147247
0.17190666496753693
0.2516207993030548
0.2982639968395233
0.34676307439804077
0.3957972526550293
0.41920384764671326
0.49285420775413513
0.5103180408477783
0.5924832820892334
0.6755115389823914
0.6829619407653809
0.8101316094398499
0.837228536605835
0.8365396857261658
0.9079329967498779
0.9369956851005554
0.9504707455635071
0.9830572009086609
0.9803587794303894
0.9906687140464783
0.9999129176139832
0.991007924079895
0.9743732213973999
0.954582154750824
0.9401459693908691
0.9063718914985657
0.8360192179679871
0.8053240180015564
0.8040200471878052
0.7624807357788086
0.6996646523475647
0.6393332481384277
0.6137039065361023
0.5664748549461365
0.4827989637851715
0.46995916962623596
0.4036531448364258
0.38307487964630127
0.3570176959037781
0.3552796542644501
0.2569575309753418
0.26229649782180786
0.25755298137664795
0.23667210340499878
0.22210046648979187
0.1736176609992981
0.17633959650993347
0.15976981818675995
0.18319739401340485
0.15054969489574432
0.14848893880844116
0.14827384054660797
0.11930239200592041
0.1514323651790619
0.1225186362862587
0.14693306386470795
0.13259585201740265
0.16992880403995514
0.1523359715938568
0.19020706415176392
0.11946023255586624
0.18895582854747772
0.18461598455905914
0.17953404784202576
0.21933574974536896
0.1594039797782898
0.19456934928894043
0.2189256101846695
0.21320872008800507
0.2013133019208908
0.22565753757953644
0.21238473057746887
0.21956440806388855
0.21957428753376007
0.25619328022003174
0.24847429990768433
0.29368430376052856
0.2690405249595642
0.23235657811164856
0.2786036729812622
0.24947744607925415
0.26882442831993103
0.2808395028114319
0.26294323801994324
0.27749523520469666
0.2782221734523773
0.2963683307170868
0.295697420835495
0.2980300486087799
0.33318766951560974
0.31448036432266235
0.3144167363643646
0.32793742418289185
0.3429197072982788
0.33542370796203613
0.2917610704898834
0.320391982793808
0.32458430528640747
0.32740718126296997
0.3065636456012726
0.3090822398662567
0.2901630103588104
0.2974570095539093
0.2807295322418213
0.32195597887039185
0.28664666414260864
0.27586695551872253
0.2943258583545685
0.28699544072151184
0.2685070037841797
0.28316250443458557
0.2603870630264282
0.27588164806365967
0.261044442653656
0.2600736916065216
0.24375028908252716
0.23284472525119781
0.24362590909004211
0.20476599037647247
0.25187501311302185
0.21255822479724884
0.2518778145313263
0.22027041018009186
0.20014549791812897
0.1845853477716446
0.19839514791965485
0.19100044667720795
0.18407635390758514
0.18511314690113068
0.1659104824066162
0.17814956605434418
0.13760973513126373
0.1417251080274582
0.15060622990131378
0.11959142237901688
0.12870806455612183
0.14997747540473938
0.11880386620759964
0.10314250737428665
0.12675972282886505
0.0809694230556488
0.09058725833892822
0.11103545129299164
0.07344117015600204
0.08755377680063248
0.07742786407470703
0.10282918810844421
0.045113977044820786
0.05721148103475571
0.05751553550362587
0.0666542500257492
0.06657541543245316
0.06112585589289665
0.0760582759976387
0.05976156145334244
0.02190069667994976
0.016370875760912895
0.030263107270002365
0.028157684952020645
0.027559125795960426
0.05221609026193619
0.02000746689736843
0.04946952685713768
0.04842051863670349
0.026640277355909348
0.015124516561627388
0.04620625451207161
0.0063956305384635925
0.028914472088217735
0.023948971182107925
0.04121636599302292
0.023204416036605835
0.016070393845438957
0.03368452191352844
0.006904988549649715
0.022974740713834763
0.014391967095434666
0.011824415996670723
-0.016252832487225533
0.009626942686736584
-0.009187940508127213
0.017883848398923874
0.05036503076553345
0.0030324584804475307
0.02301410399377346
0.02411453239619732
-0.015317856334149837
0.017642393708229065
-0.0012815708760172129
-0.004013860132545233
0.01819681189954281
-0.007039532531052828
-0.006637107580900192
0.01572171039879322
0.02486487291753292
0.002424276899546385
0.01282426342368126
-0.0251254141330719
0.02602732926607132
0.0021915261168032885
0.006581590510904789
0.02150631695985794
0.016236256808042526
0.012170849367976189
-0.004725805949419737
-0.01589098945260048
0.009569059126079082
-0.006068182643502951
0.018386144191026688
0.0076470584608614445
-0.009222552180290222
0.009359747171401978
0.017653541639447212
0.008430885151028633
-0.008503889665007591
0.010650685988366604
0.012700759805738926
0.021457402035593987
0.01996186189353466
-0.009038877673447132
-0.001306121121160686
0.01890009641647339
-0.022217953577637672
0.02267291210591793
-0.006085186265408993
0.0017747420351952314
0.03568842262029648
0.008889224380254745
0.004958002828061581
0.015799880027770996
0.009387325495481491
0.0001579062663950026
0.016270726919174194
0.050589729100465775
0.029039951041340828
0.02073739841580391
0.01786646991968155
0.027991488575935364
0.025281399488449097
-0.0009301658719778061
0.024095667526125908
0.01642994023859501
0.046950649470090866
0.012909096665680408
0.03996647149324417
-0.0025404219049960375
0.02484261989593506
0.007496463134884834
0.005770863499492407
0.037157151848077774
0.0070078507997095585
0.024157142266631126
0.016232317313551903
0.03853578492999077
0.03929213806986809
-0.0014153303345665336
0.0538204088807106
0.03428031876683235
0.08585461229085922
0.07050608098506927
0.07708317786455154
0.02316495217382908
0.10306178033351898
0.07897268980741501
0.06085200607776642
0.09687715768814087
0.12097049504518509
0.07648932933807373
0.130006805062294
0.1117209941148758
0.11334232985973358
0.12128650397062302
0.11897199600934982
0.1412038505077362
0.14543019235134125
0.16188183426856995
0.16982562839984894
0.14023686945438385
0.1646174192428589
0.12408773601055145
0.15370184183120728
0.12033744901418686
0.12611159682273865
0.14231182634830475
0.1138264462351799
0.13002483546733856
0.09012062102556229
0.09721681475639343
0.11288943886756897
0.12366768717765808
0.07098787277936935
0.11288223415613174
0.08415578305721283
0.11369546502828598
0.06368766725063324
0.055407602339982986
0.06560162454843521
0.037100497633218765
0.05468963831663132
0.048261478543281555
0.06982261687517166
0.050285454839468
0.02037709206342697
0.01768231950700283
0.02242918312549591
0.0019661823753267527
-0.0004993401817046106
0.07335107028484344
0.021147698163986206
0.057846494019031525
0.021913675591349602
0.027542995288968086
0.0044726161286234856
0.0565260648727417
0.027289582416415215
0.06341464817523956
0.02160772494971752
0.05645162612199783
0.05983690172433853
0.0069127436727285385
0.04109185189008713
0.014476771466434002
0.011748327873647213
0.03358312323689461
0.044996678829193115
0.05353887379169464
0.022471865639090538
0.044632378965616226
0.0353960357606411
0.02332868054509163
0.004555429797619581
0.019471369683742523
0.07820606231689453
-0.0038853224832564592
0.006074345204979181
-0.01065110880881548
0.025366859510540962
0.028492137789726257
0.015482299029827118
0.021954745054244995
-0.019626807421445847
0.006530006416141987
-0.042733896523714066
-0.004920935723930597
-0.010024327784776688
-0.050826746970415115
-0.025124888867139816
-0.062086548656225204
-0.06723597645759583
-0.06457941234111786
-0.05478830635547638
-0.048271067440509796
-0.01990056224167347
0.026329558342695236
0.007223463151603937
0.016803640872240067
0.06817831844091415
0.07959771901369095
0.11770875751972198
0.1592256873846054
0.1999441236257553
0.22355669736862183
0.27854683995246887
0.3498191237449646
0.3790743947029114
0.4361347258090973
0.5018714070320129
0.5604297518730164
0.6034582257270813
0.6744256615638733
0.7175329327583313
0.7446990013122559
0.826880931854248
0.8423317074775696
0.9506973624229431
0.9329511523246765
0.9486646056175232
0.9884766340255737
1.0122286081314087
1.018976092338562
0.9962069988250732
1.0022852420806885
0.9815696477890015
0.9503740668296814
0.8958673477172852
0.8928611278533936
0.8113380074501038
0.80314040184021
0.8022799491882324
0.737602949142456
0.6888606548309326
0.6285311579704285
0.5834774374961853
0.5417769551277161
0.4854845106601715
0.42770880460739136
0.44723817706108093
0.4209170341491699
0.34475892782211304
0.3379010558128357
0.27265089750289917
0.27478450536727905
0.2200945019721985
0.24079571664333344
0.20749151706695557
0.16829617321491241
0.18828439712524414
0.19755350053310394
0.1594526618719101
0.15202784538269043
0.14809180796146393
0.14682208001613617
0.16510410606861115
0.16508828103542328
0.10417012125253677
0.16511398553848267
0.14171423017978668
0.17809252440929413
0.15966875851154327
0.17250698804855347
0.1501317173242569
0.1398530751466751
0.17317792773246765
0.19135382771492004
0.19258011877536774
0.1989240050315857
0.19452287256717682
0.209133580327034
0.18711094558238983
0.2052375227212906
0.18563134968280792
0.21856854856014252
0.21978811919689178
0.23213201761245728
0.25569313764572144
0.24367402493953705
0.19571711122989655
0.27818119525909424
0.26149386167526245
0.2778373658657074
0.2544773519039154
0.28838613629341125
0.30562177300453186
0.25308966636657715
0.30843231081962585
0.2731635570526123
0.2796240448951721
0.296722412109375
0.3372057378292084
0.26954230666160583
0.29286518692970276
0.3070470988750458
0.31961148977279663
0.3070206940174103
0.31767547130584717
0.29174384474754333
0.3245047330856323
0.3293609619140625
0.28984010219573975
0.29455628991127014
0.3146374821662903
0.31181731820106506
0.3133449852466583
0.2793552279472351
0.2916274666786194
0.2868410646915436
0.31692418456077576
0.2870315909385681
0.27567365765571594
0.26418089866638184
0.2761324942111969
0.29299983382225037
0.23831599950790405
0.2633611857891083
0.265134334564209
0.2864338159561157
0.25698474049568176
0.2633352279663086
0.2336033582687378
0.20148421823978424
0.19469965994358063
0.20119130611419678
0.21037308871746063
0.1963358372449875
0.18669025599956512
0.2216176688671112
0.13892872631549835
0.1569930911064148
0.21316087245941162
0.16905538737773895
0.14507514238357544
0.1307431310415268
0.15972311794757843
0.15186405181884766
0.14806582033634186
0.10410165786743164
0.1245056614279747
0.11260586231946945
0.11934541910886765
0.0767800509929657
0.11192111670970917
0.12414861470460892
0.06667576730251312
0.10291948169469833
0.11306671798229218
0.09454720467329025
0.07351844012737274
0.07287134975194931
0.057119254022836685
0.06719998270273209
0.040834780782461166
0.05747748538851738
0.03805767372250557
0.023970600217580795
0.07484433799982071
0.011084291152656078
0.07479825615882874
0.0001528737338958308
0.054584577679634094
0.038765933364629745
0.0037892074324190617
0.022045817226171494
0.0108494833111763
0.010306090116500854
0.04207931458950043
0.002993072150275111
-0.01213093101978302
0.04188993200659752
0.027338864281773567
0.019020788371562958
0.01263082679361105
0.029385939240455627
0.022416414692997932
0.012550032697618008
0.0029159148689359426
0.03247178718447685
0.03851146250963211
0.019746489822864532
0.06507564336061478
0.013827953487634659
0.012395479716360569
0.0360935777425766
0.01310168206691742
0.01189504936337471
1.441477706976002e-05
0.01473383791744709
-0.02530958503484726
-0.008420703932642937
-0.015341393649578094
-0.036026518791913986
0.023373732343316078
-0.0030804327689111233
-0.013580714352428913
0.009015249088406563
-0.02110918238759041
0.017644040286540985
0.026558879762887955
-0.025739362463355064
-0.00824156403541565
-0.010861406102776527
0.003135290928184986
0.01624029316008091
-0.0012730173766613007
0.006474500056356192
0.011669561266899109
0.01486572902649641
-0.013255382888019085
0.011587140150368214
0.0031778491102159023
-0.006977828219532967
-0.007999171502888203
0.000459593313280493
-0.012981876730918884
-0.02100316993892193
0.006763257086277008
0.019920898601412773
0.0020111657213419676
0.020055975764989853
-6.401380960596725e-05
-0.010357427410781384
-0.019384855404496193
-0.00624835304915905
0.03523647040128708
0.005608076229691505
-0.022228103131055832
0.011329405941069126
0.0054496536031365395
0.0051534888334572315
0.0037338202819228172
0.001957245636731386
0.012818453833460808
-0.010349852964282036
0.005088202189654112
0.02387271448969841
0.04841224104166031
0.04860538989305496
0.08037526160478592
0.07649550586938858
0.029988376423716545
0.08281496167182922
0.10192723572254181
0.10038851946592331
0.0759139433503151
0.11656899005174637
0.12288929522037506
0.15920743346214294
0.18841442465782166
0.19426000118255615
0.17854458093643188
0.22512149810791016
0.22363623976707458
0.25244948267936707
0.2385299801826477
0.2547193467617035
0.25496533513069153
0.2546612322330475
0.28592443466186523
0.27249184250831604
0.2592930197715759
0.21978352963924408
0.2232208549976349
0.22529853880405426
0.22333021461963654
0.16869981586933136
0.2003936469554901
0.15075425803661346
0.13453179597854614
0.16090883314609528
0.11729425936937332
0.12106894701719284
0.12059128284454346
0.10217270255088806
0.0612494982779026
0.06111676245927811
0.05256231129169464
0.06355845928192139
0.05661889538168907
0.06560110300779343
0.05069296434521675
0.05543200671672821
0.031979307532310486
0.027574757114052773
0.003937057685106993
0.01855362392961979
-0.0009492390090599656
0.013954844325780869
0.055649109184741974
0.03269312158226967
0.02936057187616825
0.02638331614434719
0.019370771944522858
0.027042387053370476
0.04713060334324837
0.009861855767667294
0.01737651601433754
0.01260318886488676
0.023248029872775078
0.07701393961906433
0.06398341059684753
0.06610240042209625
0.00690161157399416
0.005410138983279467
0.04807782918214798
0.014638147316873074
0.03722020983695984
0.006852960679680109
0.052702706307172775
0.030105186626315117
0.02542833238840103
0.08418850600719452
0.036302000284194946
0.013815877959132195
0.016590043902397156
0.05561937764286995
0.016195766627788544
0.06161058321595192
0.011541707441210747
0.03674955666065216
0.011598993092775345
0.05187731981277466
0.054648447781801224
0.04157259315252304
0.028119517490267754
0.021463673561811447
0.02955121360719204
0.01006160769611597
0.019404150545597076
0.05774225294589996
0.02621910534799099
0.03658498078584671
0.06409092992544174
0.047454532235860825
0.0452694408595562
0.06870511919260025
0.06411591917276382
0.07080024480819702
0.07806746661663055
0.11450836062431335
0.1363820880651474
0.084620401263237
0.18973630666732788
0.2008907049894333
0.21849343180656433
0.28408119082450867
0.29098036885261536
0.3777012825012207
0.4530518352985382
0.4882102310657501
0.5152509808540344
0.6240473389625549
0.6794726252555847
0.7673290371894836
0.8080848455429077
0.8694656491279602
0.8663134574890137
0.8969407677650452
0.9016769528388977
0.871802031993866
0.8689899444580078
0.8787530660629272
0.7795515656471252
0.7493515014648438
0.6798408627510071
0.6347445845603943
0.5411734580993652
0.5180720686912537
0.42877107858657837
0.36768850684165955
0.30880364775657654
0.277202844619751
0.21018673479557037
0.20547610521316528
0.14677898585796356
0.12987229228019714
0.13466450572013855
0.12154980003833771
0.08602569252252579
0.062475837767124176
0.06557436287403107
0.07448092103004456
0.05878888815641403
0.06363805383443832
0.07405738532543182
0.018742643296718597
0.05270548164844513
0.05375756323337555
0.042422279715538025
0.06219441443681717
0.0389450341463089
0.04772450774908066
0.049693137407302856
0.09121904522180557
0.03841817378997803
0.05792909860610962
0.0802605152130127
0.07493460923433304
0.04291750490665436
0.06930042803287506
0.03665899112820625
0.08657994866371155
0.08592291176319122
0.06694982945919037
0.0605502687394619
0.08421308547258377
0.07245974987745285
0.0706801638007164
0.09428984671831131
0.1149824932217598
0.09083999693393707
0.0866498202085495
0.09159548580646515
0.13378503918647766
0.09755692631006241
0.10104868561029434
0.13626424968242645
0.13265493512153625
0.1549467295408249
0.14495250582695007
0.1311507523059845
0.17164117097854614
0.13128595054149628
0.17157985270023346
0.16045302152633667
0.19275617599487305
0.17397010326385498
0.19115974009037018
0.1851605623960495
0.19935257732868195
0.2102820724248886
0.19976061582565308
0.20938795804977417
0.24585139751434326
0.2244776338338852
0.2742830812931061
0.23685309290885925
0.21541091799736023
0.21468159556388855
0.2784246802330017
0.25088798999786377
0.24442055821418762
0.29878419637680054
0.26912498474121094
0.2691940367221832
0.2956394553184509
0.2857622504234314
0.29615533351898193
0.29551976919174194
0.2825142741203308
0.28056731820106506
0.31667065620422363
0.31094905734062195
0.3023533225059509
0.25724363327026367
0.2958737909793854
0.3070480525493622
0.3323524296283722
0.31873780488967896
0.34218958020210266
0.2714187800884247
0.2948469817638397
0.31062886118888855
0.28065457940101624
0.3036021888256073
0.3082716166973114
0.30713775753974915
0.3118323087692261
0.2609928250312805
0.2660444378852844
0.2804502248764038
0.2831840515136719
0.25702986121177673
0.25844714045524597
0.2580361068248749
0.273902952671051
0.2621290385723114
0.2670305669307709
0.25057291984558105
0.2872001528739929
0.2270677536725998
0.22712166607379913
0.22246238589286804
0.24033981561660767
0.2524350583553314
0.20668485760688782
0.20047856867313385
0.21204623579978943
0.1734662503004074
0.1700531542301178
0.11819616705179214
0.16961060464382172
0.1451984941959381
0.1667601764202118
0.14497992396354675
0.11771326512098312
0.13115294277668
0.1246192529797554
0.11767023056745529
0.11400851607322693
0.11471057683229446
0.10829394310712814
0.09897448122501373
0.10358844697475433
0.09135723114013672
0.08948498964309692
0.08312197774648666
0.06850656121969223
0.05997779965400696
0.06874199956655502
0.0569508895277977
0.08378428965806961
0.06666479259729385
0.031103722751140594
0.064038947224617
0.04622788354754448
0.055614493787288666
0.034686800092458725
0.04465565085411072
0.04462944343686104
0.01504803542047739
0.04752478376030922
0.021901598200201988
0.013246978633105755
0.02433144859969616
0.03189612179994583
-0.0025100891944020987
0.05371400713920593
0.037679772824048996
0.009242778643965721
0.020820096135139465
0.046852849423885345
0.009159371256828308
0.012607633136212826
0.04243859276175499
0.03290709853172302
-0.006508398335427046
0.02340598590672016
0.027865391224622726
0.014248251914978027
0.02492646314203739
-0.005359326023608446
0.04612958803772926
0.00035594639484770596
-0.010446082800626755
0.007633870467543602
-0.025134725496172905
-0.01087621133774519
-0.017617151141166687
0.017857184633612633
0.034413889050483704
0.012145199812948704
0.01988644152879715
-0.011346842162311077
0.013227228075265884
-0.000500358350109309
0.045180145651102066
0.02447296306490898
-0.009025536477565765
-0.0007589313318021595
